sample-time[seconds]	plasma[kBq/cc]
45.0000	1.2261
278.0000	2.5042
574.0000	4.0623
886.0000	5.0411
1178.0000	5.6817
1475.0000	6.2758
1777.0000	6.6674
2079.0000	7.1576
2379.0000	7.4956
2748.0000	7.4965
2981.0000	7.8881
3280.0000	8.0291
3578.0000	8.1637
3893.0000	8.1246
4206.0000	8.4152
4482.0000	8.5420
4776.0000	8.6525
5071.0000	8.8881
5652.0000	8.4003
5986.0000	8.7253
