sample-time[seconds]	plasma[kBq/cc]
291.0000	3.2251
616.0000	4.6519
888.0000	5.7291
1183.0000	6.6002
1485.0000	7.2997
1782.0000	7.8602
2085.0000	8.2037
2383.0000	8.7841
2686.0000	8.8638
2982.0000	8.9891
3289.0000	9.1262
3584.0000	9.1971
3881.0000	9.1868
4186.0000	9.4886
4488.0000	9.2902
4783.0000	9.6796
5083.0000	9.9637
5382.0000	10.0960
5684.0000	10.4423
6046.0000	10.5204
