sample-time[seconds]	plasma[kBq/cc]
48.0000	0.8026
265.0000	1.9305
565.0000	3.2063
869.0000	4.2346
1168.0000	4.8332
1468.0000	5.5435
1776.0000	6.1502
2077.0000	6.4507
2375.0000	6.9514
2677.0000	7.3716
2969.0000	7.3064
3282.0000	7.6489
3566.0000	7.7027
3867.0000	7.7438
4163.0000	7.8568
4462.0000	8.0220
4764.0000	8.0667
5066.0000	7.7618
5365.0000	7.8912
5678.0000	7.8478
5983.0000	8.0372
