sample-time[seconds]	plasma[kBq/cc]
363.0000	3.0347
720.0000	3.7687
949.0000	4.4180
1251.0000	5.8869
1500.0000	6.7735
1808.0000	7.0792
2100.0000	8.3753
2402.0000	8.9615
2701.0000	9.6821
3001.0000	9.5026
3315.0000	9.6458
3604.0000	10.6552
3904.0000	11.4733
4203.0000	10.4214
4521.0000	11.7572
4803.0000	11.1759
5103.0000	12.8020
5435.0000	12.4824
5713.0000	11.3722
6001.0000	14.0279
