start[seconds]	end[kBq/cc]	merged_Amygdala	merged_Caudate	merged_Cerebellum	merged_DLPFC	merged_Hippocampus	merged_M1	merged_NAc	merged_OFC	merged_PCC	merged_Putamen	merged_SMA	merged_Thalamus	merged_V1	
0.0	10.0	1.6001574759687836E-5	0.0011457460862095714	3.711743206438973E-7	1.2310037636227955E-13	2.0185411157281794E-4	7.79781727483034E-10	1.4743935687598693E-4	1.8773548372440598E-10	0.0	0.021453926355206182	0.0	-2.5618541201303907E-11	1.4696466168244887E-10
10.0	20.0	6.480129980124886E-4	3.3476722149267124E-4	0.0087392392605912	1.4314462583924117E-8	4.007827694349974E-4	0.009704859483598272	2.3735686673921708E-4	0.002272745824093847	4.0331943941137894E-4	6.083649787799998E-4	0.004115846619843153	0.021453588808376105	0.004971077553216932
20.0	30.0	0.7025013976886231	1.1582254753129122	0.7880236468558173	0.9196007977663775	0.661804685086915	0.5364032316648838	1.1372919581105223	0.7728403784108885	0.5336647884863795	0.8620295104214816	0.5510495593924014	0.5170458056648871	0.8592096041264701
30.0	40.0	5.967083200870321	7.328252338383296	10.694003137569982	7.617231704845502	4.1032167167374585	7.118173312167732	9.109774583208877	4.597112832647381	6.5252306750326445	8.954338866520704	9.300875747790101	5.8582876427729325	7.212001224436185
40.0	50.0	12.875399629429621	16.281438288623338	20.405176184015367	15.348747887963915	12.026174762032248	19.268712243255305	17.0285498568442	16.315701975966945	19.515475099736992	17.574773362012415	19.50115095982786	13.537664700271492	22.263533701692573
50.0	70.0	16.94421729781748	19.420843529374633	27.222475904631384	23.005373179216793	17.87883171890721	19.335959561017095	18.03719973353158	19.40448773990978	19.02407238700173	23.52478485572629	20.561472838042214	20.819860802557237	26.21803118189949
70.0	90.0	18.75982732809935	21.194375645624447	27.481564968072096	20.61265614431656	18.849281079841383	21.695736816951207	18.994007085276916	18.75143275116429	19.60022713921287	23.892751910822177	23.448531010111825	16.769687387279998	28.80281255031838
90.0	110.0	19.775122861453994	23.990976072337528	28.20988303619681	23.65745408432957	18.863804325912938	22.845742770603724	18.64400216330469	20.456666599620473	17.32050624038234	26.525865314452627	26.94473569119563	20.450402611180355	28.58315143510989
110.0	130.0	18.799756248637397	22.82802024606156	30.028323540178317	26.700372224651886	19.320530544627797	24.079607520784652	16.918317630227687	17.64736731847127	21.05192924268318	25.86427741322091	26.192670525097455	19.98595388312089	29.472596079458985
130.0	150.0	19.238339509481587	25.92831371255117	28.459160832525455	25.291260132993706	19.390339215596516	23.9399594968679	18.406163671375374	18.41879889459321	18.785629258011326	24.962033225268854	28.85909613624948	20.773325274761458	27.970216780784995
150.0	170.0	19.362122901218875	24.849825558597093	28.136771029870488	25.607944700040704	18.360752539201215	25.136291065994573	17.791103806115885	19.926163211013332	19.553525866884172	25.69475719017711	27.71643222746302	20.166421754019602	29.806376227145066
170.0	200.0	18.853262736175775	25.116726875305176	29.422584967011385	25.78347761621735	20.22948843060118	24.330245416991566	17.751270758367216	21.462244438402582	19.832626458370324	26.68256887575475	25.143826680105242	21.08105422858905	28.60594635529277
200.0	230.0	20.226025308616432	24.577139390658026	29.008446856378352	25.029107884210372	20.07573567014752	26.52351869855608	18.82412284243423	19.272689804886326	22.639294219739508	27.5112404009191	26.362828035823636	21.83391621238307	29.812998857015767
230.0	290.0	21.695342386742976	27.357978082682987	27.924108127482885	25.968786035530297	19.045581846526176	25.84565585486743	19.162779014722435	18.524565494421758	21.81947578083385	27.796427532909362	25.842725527091105	22.800444452386152	29.454726471511307
290.0	590.0	20.32842953010292	25.33796352882908	28.010224260867222	24.458567764044737	19.35792688889937	25.06030945875207	18.702122911942745	18.920833081910104	19.28920381719416	26.319538744484507	26.907709926855368	22.804379957959167	28.564152276005725
590.0	890.0	19.91916879327381	24.149408686650943	24.003869588166765	22.828686729015544	19.253999825679895	23.99555422335255	18.314182589539385	17.721923033396404	19.648882779208098	25.242380855529287	25.104180101488456	21.93242699759347	24.746850885769735
890.0	1190.0	18.474655977019076	21.68914967367094	18.32309233378438	18.860932654443882	17.655642769553445	20.682698634206034	16.54389971758412	15.071152268034039	17.727566574559066	22.225633373105428	21.848622181376474	20.628309034763422	19.291151458651175
1190.0	1490.0	16.303880144186056	19.00732700138876	14.253321810601985	16.293960196498766	15.718196030819055	17.675575888886744	14.64417537334746	12.096754608732281	14.427767392360803	19.92952055272048	18.949604659784036	19.096201911008446	15.808849247513114
1490.0	1790.0	15.161654459363291	17.06441411580125	11.909772592377895	13.968062419371845	13.988477157823967	15.756156259653519	13.04796262757968	11.227194973916719	13.105071544647217	18.07917050617497	17.001681726486957	17.799384834174823	13.06860454722601
1790.0	2390.0	13.156441979835005	14.876687660609207	10.488364568728844	12.326216853546262	13.082212780461166	13.768594941314387	11.7886529053207	10.108683860663211	13.023493073203348	15.905424998058535	15.164217679226985	15.49909013733828	10.896115891200559
2390.0	2990.0	12.096615477758624	13.20012005714521	8.72011101454207	10.949439276980982	11.53256556482026	11.817469854744113	10.845635156715865	9.185706246982921	10.994556455901176	13.787396461983038	13.382825886616942	13.495670160852876	9.202108724571852
2990.0	3590.0	9.769882107523165	11.395566483066506	7.089554862605715	9.193037448690095	9.702466690179074	9.752763358914123	9.265037542950791	7.118847753062393	8.807388269540036	11.984835089706793	10.93622721609522	11.593425435231143	7.638597672087673
3590.0	4190.0	9.028053728986807	10.003599611047196	6.173098895156268	7.340256274442265	8.392551385995114	8.564882799070709	7.991097144321003	6.529651468450373	8.615074071017178	10.55551202122758	9.50573865702895	10.589712960379464	6.350086769705153
4190.0	4790.0	7.612959435941645	8.497231716979039	5.196003715042929	7.2781402508108535	6.765978285760591	8.095108762079356	7.337270475066869	5.659565304264878	7.756165352734652	9.173440834371055	9.172940484813003	8.60537232133679	5.635131143874231
4790.0	5390.0	6.5074835584321375	7.712360514353399	4.383774366193605	6.973769731558715	6.789975932150176	7.225009468137001	6.738727924043098	5.209575537479285	6.401854385029186	7.715812758701603	7.658075672681214	7.750792388629196	5.171457886232012
5390.0	5990.0	5.91337192244103	6.943242340871732	4.58299594295835	5.708244713827794	5.839789170207399	6.185374228321776	6.226728027900763	5.0795694878607085	7.090092413353197	7.930032796006862	7.343378510631498	6.546433593993797	5.09908152368746
